t in s;r_x (m);r_y (m);r_z (m);v_x (m/s);v_y (m/s);v_z (m/s);a_x (m/s2);a_y (m/s2);a_z (m/s2);der(3)(r_x) (m/s3);der(3)(r_y) (m/s3);der(3)(r_z) (m/s3)
0.0;0.0;0.0;0.0;0.0;0.0;0.0;0.0;0.0;0.0;0.0;0.0;0.0
0.025;0.0;0.0;0.0;0.0;0.0;0.0;0.0;0.0;0.0;0.0;0.0;0.0
0.05;1.093750000000001e-06;2.656250000000007e-06;-3.781250000000014e-05;8.750000000000008e-05;0.00021250000000000056;-0.003025000000000011;0.007000000000000006;0.017000000000000043;-0.24200000000000088;0.28000000000000025;0.6800000000000017;-9.680000000000035
0.07500000000000001;-7.499999999999994e-06;8.906250000000023e-06;2.9062499999999493e-05;-0.0007749999999999995;0.00028750000000000065;0.00837499999999998;-0.07599999999999996;-0.011000000000000038;1.154;-3.3199999999999976;-1.1200000000000028;55.84000000000001
0.1;-3.140624999999998e-05;1.4843750000000037e-05;0.00038296874999999865;-0.0011374999999999998;0.00018750000000000057;0.019937499999999962;0.04699999999999993;0.0030000000000000304;-0.22900000000000098;4.919999999999996;0.5600000000000028;-55.32000000000005
0.125;-5.515624999999999e-05;2.5937500000000054e-05;0.0008145312499999975;-0.000762500000000001;0.000700000000000001;0.014587499999999953;-0.017000000000000015;0.038000000000000006;-0.19899999999999984;-2.5599999999999983;1.3999999999999992;1.2000000000000457
0.15;-7.171875e-05;5.125000000000007e-05;0.0012014062499999965;-0.0005625000000000009;0.0013250000000000007;0.016362499999999967;0.03300000000000003;0.011999999999999983;0.3410000000000011;2.000000000000002;-1.0400000000000011;21.60000000000004
0.175;-8.625000000000001e-05;9.156250000000006e-05;0.0016278124999999956;-0.0005999999999999996;0.0019;0.017749999999999974;-0.03599999999999992;0.033999999999999975;-0.23000000000000043;-2.7599999999999985;0.8799999999999999;-22.840000000000064
0.2;-0.00010734375000000003;0.0001385937500000001;0.002027187499999995;-0.0010875000000000004;0.0018625;0.014199999999999963;-0.0030000000000001137;-0.03699999999999998;-0.05400000000000027;1.3199999999999912;-2.8399999999999954;7.04
0.225;-0.00013250000000000005;0.00017156250000000008;0.002407812499999994;-0.0009250000000000017;0.0007750000000000003;0.01624999999999996;0.016000000000000014;-0.05000000000000002;0.21799999999999997;0.7600000000000053;-0.5200000000000017;10.880000000000011
0.25;-0.00015312500000000008;0.00018562500000000008;0.002823906249999993;-0.0007250000000000015;0.0003500000000000004;0.017037499999999966;0.0;0.016000000000000014;-0.15499999999999936;-0.6400000000000007;2.640000000000002;-14.919999999999977
0.275;-0.00017843750000000016;0.00020562500000000013;0.0032320312499999927;-0.0013000000000000025;0.0012500000000000013;0.015612499999999977;-0.04600000000000004;0.055999999999999994;0.04100000000000037;-1.84;1.5999999999999979;7.839999999999982
0.3;-0.00020671875000000017;0.0002448437500000001;0.0036340624999999915;-0.0009625000000000026;0.0018875000000000003;0.016549999999999968;0.07300000000000006;-0.0050000000000000044;0.03399999999999892;4.7600000000000104;-2.440000000000003;-0.28000000000005837
0.325;-0.00022484375000000022;0.00028906250000000015;0.004044999999999991;-0.0004875000000000004;0.0016500000000000002;0.016324999999999958;-0.03499999999999992;-0.013999999999999985;-0.0519999999999996;-4.319999999999996;-0.3599999999999989;-3.4399999999999378
0.35000000000000003;-0.00023703125000000024;0.0003253125000000002;0.0044440624999999906;-0.0004875000000000004;0.0012499999999999998;0.01559999999999996;0.03499999999999992;-0.018000000000000016;-0.006000000000000227;2.799999999999991;-0.1600000000000011;1.8399999999999734
0.3750000000000001;-0.0002487500000000003;0.00035546875000000026;0.004843124999999991;-0.00045000000000000167;0.0011624999999999995;0.01632499999999996;-0.03200000000000003;0.01100000000000001;0.06400000000000006;-2.6799999999999895;1.1599999999999975;2.8000000000000025
0.4000000000000001;-0.0002700000000000003;0.0003809375000000002;0.005254218749999989;-0.00125;0.0008749999999999999;0.016562499999999963;-0.03199999999999992;-0.034;-0.04499999999999993;4.4408920985006325e-15;-1.800000000000003;-4.360000000000006
0.4250000000000001;-0.0003012500000000003;0.0004015625000000002;0.005665937499999989;-0.00125;0.0007749999999999998;0.016374999999999976;0.03199999999999992;0.025999999999999995;0.030000000000001137;2.559999999999991;2.3999999999999977;3.00000000000004
0.4500000000000001;-0.00032671875000000035;0.0004268750000000002;0.006076718749999988;-0.0007875000000000007;0.0012500000000000002;0.01648749999999998;0.0050000000000000044;0.01200000000000001;-0.021000000000000796;-1.0799999999999956;-0.5599999999999989;-2.0400000000000755
0.4750000000000002;-0.0003465625000000004;0.00045875000000000034;0.006486093749999989;-0.0008000000000000007;0.0013000000000000004;0.01626249999999997;-0.006000000000000005;-0.008000000000000007;0.0030000000000001137;-0.439999999999999;-0.7999999999999983;0.9600000000000334
0.5000000000000001;-0.0003728125000000003;0.00048750000000000025;0.006888281249999987;-0.001299999999999998;0.0010000000000000015;0.01591249999999997;-0.03399999999999992;-0.015999999999999986;-0.031000000000000583;-1.1200000000000006;-0.3200000000000003;-1.3600000000000327
0.5250000000000001;-0.0004084375000000003;0.0005075000000000004;0.007282656249999987;-0.0015499999999999984;0.0006000000000000011;0.015637499999999964;0.013999999999999901;-0.016000000000000014;0.009000000000000341;1.919999999999991;-1.1102230246251556e-15;1.6000000000000356
0.5500000000000002;-0.0004409375000000003;0.0005221875000000004;0.0076828124999999865;-0.0010499999999999989;0.0005750000000000007;0.016374999999999976;0.026000000000000023;0.013999999999999985;0.05000000000000071;0.4800000000000044;1.1999999999999988;1.6400000000000132
0.5750000000000002;-0.00046437500000000027;0.0005526562500000005;0.008087499999999987;-0.0008249999999999971;0.0018625000000000022;0.015999999999999983;-0.007999999999999896;0.08900000000000002;-0.08000000000000007;-1.3599999999999957;2.999999999999999;-5.200000000000027
0.6000000000000002;-0.0004914062500000002;0.0006181250000000006;0.008488593749999987;-0.001337499999999998;0.003375000000000004;0.016087499999999956;-0.03300000000000014;0.03199999999999999;0.08699999999999797;-1.0000000000000089;-2.2799999999999994;6.679999999999915
0.6250000000000002;-0.0005332812500000002;0.0007062500000000008;0.008897968749999985;-0.002012499999999999;0.003675000000000004;0.016662499999999948;-0.020999999999999908;-0.008000000000000007;-0.04099999999999859;0.48000000000000886;-1.5999999999999983;-5.119999999999858
0.6500000000000002;-0.0005846875000000002;0.000780468750000001;0.009301093749999984;-0.0020999999999999977;0.0022625000000000024;0.015587499999999966;0.014000000000000012;-0.105;-0.04499999999999993;1.3999999999999955;-3.879999999999996;-0.1600000000000533
0.6750000000000003;-0.0006329687500000003;0.000820625000000001;0.009690624999999984;-0.0017624999999999984;0.0009500000000000012;0.015574999999999973;0.0129999999999999;0.0;0.04400000000000048;-0.04000000000000444;4.199999999999996;3.5600000000000134
0.7000000000000003;-0.0006742187500000003;0.0008490625000000011;0.010088281249999984;-0.0015374999999999994;0.0013250000000000015;0.01623749999999996;0.0050000000000000044;0.03;0.008999999999998565;-0.31999999999999557;1.1999999999999988;-1.4000000000000754
0.7250000000000003;-0.0007078125000000003;0.0008900000000000011;0.010497812499999983;-0.0011499999999999987;0.001950000000000002;0.016524999999999956;0.026000000000000023;0.01999999999999999;0.014000000000001123;0.84;-0.4;0.20000000000010215
0.7500000000000003;-0.0007254687500000003;0.0009332812500000013;0.010908437499999982;-0.0002624999999999971;0.0015125000000000017;0.016324999999999958;0.04500000000000004;-0.05499999999999999;-0.030000000000001137;0.76;-2.999999999999997;-1.7600000000000888
0.7750000000000004;-0.0007304687500000002;0.0009585937500000013;0.011309999999999982;-0.0001374999999999969;0.000512500000000001;0.015799999999999936;-0.03500000000000003;-0.024999999999999994;-0.012000000000000455;-3.2;1.1999999999999988;0.7200000000000266
0.8000000000000004;-0.0007390625000000001;0.0009735937500000014;0.01169906249999998;-0.0005499999999999962;0.0006875000000000017;0.015324999999999955;0.002000000000000113;0.039000000000000035;-0.025999999999998025;1.4800000000000044;2.5599999999999987;-0.5599999999999024
0.8250000000000004;-0.00075859375;0.0010023437500000015;0.01208015624999998;-0.0010124999999999971;0.0016125000000000026;0.015162499999999978;-0.039000000000000146;0.034999999999999976;0.0129999999999999;-1.6400000000000088;-0.16000000000000222;1.5599999999999157
0.8500000000000004;-0.00079046875;0.0010537500000000015;0.012463906249999981;-0.001537499999999998;0.002500000000000003;0.01553749999999997;-0.0029999999999998916;0.03599999999999999;0.01699999999999946;1.4400000000000088;0.040000000000000556;0.15999999999998224
0.8750000000000004;-0.0008309375000000001;0.0011146875000000017;0.012853124999999981;-0.001699999999999997;0.0023750000000000034;0.015599999999999958;-0.010000000000000009;-0.04599999999999997;-0.012000000000000455;-0.28000000000000447;-3.2799999999999954;-1.1599999999999955
0.9000000000000005;-0.0008731250000000001;0.0011665625000000018;0.01324312499999998;-0.001674999999999997;0.0017750000000000027;0.015599999999999958;0.01200000000000001;-0.0020000000000000295;0.012000000000000455;0.88;1.759999999999996;0.9600000000000355
0.9250000000000004;-0.0009128124999999999;0.0012048437500000017;0.013630468749999979;-0.001499999999999999;0.001287500000000004;0.015387499999999965;0.0019999999999998908;-0.037000000000000005;-0.028999999999999915;-0.40000000000000624;-1.400000000000004;-1.6400000000000206
0.9500000000000004;-0.0009473437499999998;0.0012298437500000018;0.014015781249999979;-0.0012624999999999984;0.0007125000000000036;0.01543749999999996;0.017000000000000126;-0.00899999999999998;0.032999999999999474;0.6000000000000089;1.12;2.4799999999999733
0.9750000000000004;-0.0009764062499999998;0.001249062500000002;0.014409062499999977;-0.0010624999999999981;0.0008250000000000041;0.016024999999999946;-0.001000000000000112;0.018000000000000016;0.013999999999999346;-0.7200000000000089;1.079999999999999;-0.7600000000000044
1.0000000000000004;-0.0010068749999999997;0.001275781250000002;0.014812499999999977;-0.0013749999999999986;0.0013125000000000042;0.016249999999999955;-0.02399999999999991;0.020999999999999963;0.004000000000001336;-0.9199999999999912;0.11999999999999778;-0.3999999999999201
1.0250000000000004;-0.0010445312499999995;0.0013107812500000018;0.015211718749999974;-0.001637499999999998;0.0014875000000000034;0.01568749999999996;0.0029999999999998916;-0.0069999999999999785;-0.049000000000001265;1.0799999999999959;-1.1200000000000017;-2.1200000000001116
1.0500000000000005;-0.0010814062499999995;0.0013462500000000022;0.015609374999999976;-0.001312499999999996;0.0013500000000000029;0.01612499999999994;0.02300000000000013;-0.0040000000000000036;0.08399999999999963;0.8000000000000054;0.11999999999999836;5.320000000000007
1.0750000000000002;-0.001110624999999999;0.001379375000000002;0.01602562499999997;-0.001024999999999998;0.0013000000000000034;0.017174999999999923;0.0;0.0;0.0;-0.9200000000000167;0.16000000000000214;-3.360000000000027
1.1;-0.001135468749999999;0.0014075000000000018;0.016444531249999967;-0.0009624999999999981;0.0009500000000000047;0.016337499999999946;0.0050000000000000044;-0.027999999999999997;-0.0669999999999984;0.2000000000000009;-1.1200000000000039;-2.679999999999945
1.125;-0.0011634374999999987;0.001428437500000002;0.016845312499999963;-0.0012749999999999973;0.0007250000000000056;0.015724999999999954;-0.030000000000000027;0.010000000000000009;0.017999999999998906;-1.4000000000000061;1.5200000000000056;3.399999999999904
1.15;-0.0011962499999999985;0.001454687500000002;0.01723812499999996;-0.001349999999999997;0.0013750000000000032;0.015699999999999947;0.02400000000000002;0.04199999999999998;-0.019999999999999574;2.1600000000000095;1.2800000000000034;-1.5199999999999445
1.1749999999999998;-0.0012282812499999985;0.001492656250000002;0.017627812499999954;-0.0012124999999999987;0.001662500000000002;0.015474999999999961;-0.013000000000000123;-0.01899999999999999;0.002000000000000668;-1.480000000000011;-2.4400000000000075;0.8800000000000128
1.1999999999999995;-0.001260937499999998;0.0015350000000000014;0.018018749999999948;-0.0013999999999999965;0.0017250000000000013;0.015799999999999953;-0.0019999999999998908;0.023999999999999994;0.023999999999999133;0.44000000000001477;1.7200000000000206;0.8799999999999496
1.2249999999999996;-0.001292031249999998;0.0015871875000000018;0.01841453124999995;-0.0010874999999999945;0.002450000000000005;0.015862499999999963;0.026999999999999913;0.034;-0.01899999999999835;1.159999999999986;0.39999999999999825;-1.7199999999998903
1.2499999999999996;-0.0013179687499999977;0.0016534375000000017;0.018815781249999948;-0.0009874999999999962;0.0028500000000000036;0.016237499999999978;-0.019000000000000017;-0.0020000000000000157;0.04899999999999949;-1.8400000000000036;-1.440000000000006;2.7199999999999234
1.2749999999999997;-0.0013423437499999978;0.0017204687500000022;0.01921812499999995;-0.000962499999999996;0.0025125000000000017;0.015949999999999957;0.02100000000000002;-0.02500000000000001;-0.07200000000000095;1.599999999999993;-0.9199999999999948;-4.839999999999992
1.2999999999999994;-0.0013678124999999973;0.0017737500000000017;0.019618593749999944;-0.0010749999999999933;0.0017500000000000115;0.016087499999999946;-0.029999999999999916;-0.035999999999999976;0.08300000000000018;-2.0400000000000227;-0.4400000000000042;6.200000000000123
1.3249999999999993;-0.0013973437499999971;0.001804375000000002;0.020026562499999942;-0.0012874999999999926;0.0007000000000000157;0.016549999999999954;0.0129999999999999;-0.04799999999999999;-0.045999999999999375;1.7199999999999989;-0.48000000000000215;-5.160000000000001
1.3499999999999992;-0.0014284374999999968;0.0018137500000000024;0.02042812499999994;-0.001199999999999993;5.0000000000017804e-05;0.015574999999999964;-0.005999999999999894;-0.004000000000000031;-0.03200000000000003;-0.7599999999999945;1.7600000000000044;0.5599999999999759
1.3749999999999991;-0.0014556249999999964;0.001818593750000003;0.02082249999999994;-0.0009749999999999936;0.0003375000000000167;0.01597499999999994;0.02399999999999991;0.027000000000000024;0.06399999999999828;1.1999999999999964;1.2400000000000067;3.839999999999946
1.399999999999999;-0.0014760937499999963;0.0018410937500000033;0.021230312499999935;-0.0006624999999999944;0.0014625000000000128;0.01664999999999992;0.001000000000000112;0.063;-0.009999999999999787;-0.9199999999999952;1.4400000000000042;-2.9599999999999334
1.4249999999999992;-0.0014995312499999963;0.0018882812500000039;0.021636874999999934;-0.0012124999999999963;0.0023125000000000177;0.01587499999999992;-0.04500000000000004;0.0050000000000000044;-0.0519999999999996;-1.8399999999999963;-2.3199999999999874;-1.6799999999999837
1.4499999999999988;-0.0015343749999999958;0.001927187500000004;0.022029999999999928;-0.0015749999999999935;0.0008000000000000361;0.015574999999999934;0.015999999999999903;-0.12600000000000003;0.02800000000000047;2.440000000000028;-5.240000000000067;3.200000000000043
1.4749999999999988;-0.0015699999999999954;0.0019293750000000049;0.022415624999999925;-0.0012749999999999942;-0.0006249999999999589;0.015274999999999947;0.008000000000000118;0.01200000000000001;-0.0519999999999996;-0.3199999999999925;5.520000000000021;-3.2000000000000144
1.499999999999999;-0.0016014062499999954;0.001922812500000006;0.022795468749999926;-0.0012374999999999925;0.00010000000000004526;0.015112499999999947;-0.0050000000000000044;0.04600000000000001;0.0389999999999997;-0.5200000000000021;1.3599999999999928;3.6399999999999526
1.5249999999999986;-0.0016367187499999947;0.0019429687500000065;0.02318531249999992;-0.00158749999999999;0.0015125000000000277;0.016074999999999933;-0.02300000000000013;0.067;0.038000000000000256;-0.7200000000000141;0.8400000000000101;-0.03999999999997833
1.5499999999999985;-0.0016740624999999943;0.0019898437500000072;0.023579999999999917;-0.0013999999999999904;0.002237500000000025;0.015499999999999943;0.038000000000000145;-0.009000000000000008;-0.08399999999999963;2.44000000000002;-3.040000000000011;-4.880000000000013
1.5749999999999984;-0.001706249999999994;0.0020389062500000077;0.023969374999999914;-0.0011749999999999896;0.0016875000000000267;0.01564999999999995;-0.020000000000000018;-0.03500000000000003;0.09600000000000009;-2.320000000000015;-1.0400000000000047;7.200000000000014
1.5999999999999983;-0.0017401562499999937;0.0020781250000000084;0.024367968749999913;-0.0015374999999999887;0.0014500000000000272;0.016237499999999953;-0.009000000000000008;0.016000000000000014;-0.04899999999999949;0.44000000000000195;2.040000000000009;-5.800000000000003
1.6249999999999982;-0.0017778124999999932;0.0021179687500000087;0.02476718749999991;-0.001474999999999989;0.0017375000000000263;0.015699999999999943;0.014000000000000012;0.007000000000000006;0.005999999999998451;0.920000000000004;-0.3600000000000016;2.1999999999999256
1.649999999999998;-0.0018118749999999925;0.002159843750000009;0.0251531249999999;-0.0012499999999999929;0.0016125000000000282;0.01517499999999993;0.0039999999999998925;-0.016999999999999987;-0.04800000000000004;-0.4000000000000098;-0.9600000000000117;-2.1599999999999664
1.6749999999999978;-0.0018390624999999922;0.0021864062500000095;0.025541249999999897;-0.0009249999999999938;0.0005125000000000322;0.015874999999999917;0.02200000000000013;-0.07100000000000001;0.1039999999999992;0.7200000000000121;-2.1600000000000086;6.079999999999991
1.699999999999998;-0.001861249999999992;0.00218828125000001;0.025947343749999897;-0.0008499999999999919;-0.00036249999999997254;0.016612499999999912;-0.016000000000000014;0.0010000000000000009;-0.04499999999999993;-1.5199999999999978;2.879999999999985;-5.959999999999933
1.724999999999998;-0.001884999999999992;0.002188750000000011;0.026361718749999898;-0.0010499999999999932;0.0004000000000000315;0.01653749999999991;0.0;0.06;0.0389999999999997;0.6399999999999971;2.3599999999999874;3.3599999999999675
1.7499999999999978;-0.0019114062499999915;0.002211875000000011;0.02677640624999989;-0.0010624999999999944;0.0014500000000000185;0.01663749999999992;-0.001000000000000112;0.023999999999999994;-0.030999999999998806;-0.040000000000004976;-1.4400000000000182;-2.799999999999975
1.7749999999999977;-0.0019389062499999912;0.0022567187500000113;0.02718171874999989;-0.0011374999999999957;0.002137500000000016;0.01578749999999995;-0.0050000000000000044;0.031;-0.036999999999999034;-0.15999999999999626;0.28000000000000125;-0.24000000000000996
1.7999999999999976;-0.001967656249999991;0.0023114062500000114;0.027573437499999888;-0.0011624999999999956;0.002237500000000016;0.01554999999999995;0.0030000000000000027;-0.022999999999999993;0.017999999999998906;0.3200000000000014;-2.1600000000000072;2.1999999999999256
1.8249999999999973;-0.0019962499999999907;0.0023637500000000112;0.027964999999999882;-0.001124999999999996;0.0019500000000000196;0.01577499999999993;0.0;0.0;0.0;-0.1200000000000016;0.9200000000000111;-0.7199999999999652
1.8499999999999972;-0.0020257812499999903;0.0024092187500000116;0.02835015624999988;-0.0012374999999999958;0.0016875000000000206;0.015037499999999943;-0.009000000000000008;-0.02099999999999999;-0.058999999999999275;-0.3600000000000016;-0.8400000000000026;-2.3599999999999794
1.8749999999999971;-0.00205734374999999;0.002443437500000012;0.028733749999999877;-0.0012874999999999957;0.001050000000000023;0.015649999999999956;0.0050000000000000044;-0.03;0.10800000000000054;0.5600000000000025;-0.3600000000000016;6.680000000000017
1.8999999999999968;-0.00208781249999999;0.0024606250000000123;0.02913718749999987;-0.0011499999999999974;0.00032500000000003197;0.016624999999999935;0.006000000000000005;-0.027999999999999997;-0.030000000000001137;0.040000000000000535;0.08000000000000107;-5.5200000000001355
